Wavelength	Transmittance	hex_color	Manufacturer	Name	Filter Number
350	0.07159	#838383	Omega	650NM REFLECTOR Notch (Rejection Band)	W5430
351	0.07873999999999999				
352	0.09044				
353	0.10800000000000001				
354	0.13205999999999998				
355	0.16151				
356	0.19168				
357	0.2202				
358	0.24536999999999998				
359	0.26245				
360	0.26161999999999996				
361	0.23657				
362	0.19417				
363	0.14931				
364	0.11388				
365	0.09107				
366	0.07797				
367	0.07219				
368	0.07266				
369	0.0786				
370	0.09061999999999999				
371	0.11115				
372	0.14211000000000001				
373	0.1875				
374	0.24886				
375	0.3285				
376	0.41893				
377	0.50927				
378	0.58736				
379	0.63639				
380	0.6479				
381	0.62881				
382	0.59389				
383	0.55799				
384	0.5337299999999999				
385	0.52616				
386	0.5370199999999999				
387	0.5662400000000001				
388	0.60994				
389	0.6604800000000001				
390	0.70696				
391	0.73831				
392	0.74724				
393	0.73658				
394	0.7158				
395	0.69541				
396	0.68572				
397	0.6907099999999999				
398	0.71009				
399	0.73961				
400	0.77117				
401	0.7929200000000001				
402	0.79584				
403	0.77456				
404	0.7349				
405	0.68669				
406	0.6377900000000001				
407	0.59809				
408	0.5706				
409	0.55804				
410	0.5606300000000001				
411	0.57674				
412	0.60514				
413	0.6420600000000001				
414	0.68171				
415	0.7159099999999999				
416	0.7380500000000001				
417	0.7436400000000001				
418	0.73382				
419	0.7125				
420	0.68613				
421	0.65898				
422	0.63582				
423	0.62205				
424	0.61767				
425	0.62493				
426	0.6430500000000001				
427	0.67047				
428	0.70563				
429	0.74328				
430	0.77996				
431	0.8095				
432	0.82759				
433	0.83292				
434	0.8249				
435	0.8075199999999999				
436	0.78462				
437	0.75981				
438	0.73763				
439	0.72083				
440	0.71063				
441	0.70819				
442	0.71281				
443	0.72503				
444	0.74146				
445	0.7618				
446	0.7824899999999999				
447	0.80092				
448	0.8142				
449	0.81994				
450	0.81595				
451	0.80476				
452	0.78524				
453	0.76058				
454	0.7327800000000001				
455	0.7044799999999999				
456	0.67643				
457	0.6508799999999999				
458	0.62922				
459	0.6114999999999999				
460	0.59768				
461	0.58792				
462	0.58358				
463	0.58252				
464	0.58538				
465	0.59227				
466	0.60234				
467	0.61493				
468	0.6306				
469	0.6477200000000001				
470	0.66672				
471	0.6867300000000001				
472	0.7077899999999999				
473	0.72887				
474	0.75003				
475	0.77003				
476	0.7895399999999999				
477	0.80611				
478	0.8191700000000001				
479	0.8289799999999999				
480	0.83345				
481	0.83328				
482	0.8299				
483	0.8229500000000001				
484	0.81369				
485	0.8042199999999999				
486	0.79459				
487	0.7854000000000001				
488	0.77715				
489	0.77087				
490	0.7665500000000001				
491	0.7641899999999999				
492	0.76375				
493	0.76579				
494	0.76988				
495	0.7763500000000001				
496	0.78447				
497	0.7955200000000001				
498	0.80648				
499	0.8193699999999999				
500	0.8325100000000001				
501	0.84557				
502	0.8576900000000001				
503	0.86882				
504	0.87827				
505	0.88497				
506	0.89031				
507	0.89402				
508	0.8952800000000001				
509	0.89531				
510	0.8946500000000001				
511	0.89338				
512	0.8911				
513	0.88946				
514	0.8879300000000001				
515	0.88614				
516	0.8862099999999999				
517	0.88575				
518	0.8867499999999999				
519	0.88738				
520	0.88888				
521	0.88885				
522	0.8892				
523	0.88872				
524	0.8869499999999999				
525	0.88459				
526	0.8810800000000001				
527	0.87602				
528	0.86995				
529	0.86237				
530	0.85476				
531	0.84584				
532	0.83619				
533	0.8264400000000001				
534	0.81647				
535	0.80616				
536	0.79655				
537	0.78675				
538	0.77854				
539	0.77081				
540	0.76412				
541	0.75875				
542	0.7543300000000001				
543	0.75221				
544	0.75196				
545	0.7532				
546	0.7568300000000001				
547	0.7617499999999999				
548	0.7678				
549	0.77654				
550	0.78596				
551	0.79572				
552	0.8070499999999999				
553	0.81836				
554	0.8304900000000001				
555	0.84226				
556	0.8538800000000001				
557	0.8652500000000001				
558	0.87495				
559	0.88473				
560	0.8927700000000001				
561	0.8995099999999999				
562	0.9054000000000001				
563	0.91008				
564	0.91336				
565	0.91606				
566	0.9177				
567	0.91828				
568	0.9173399999999999				
569	0.91618				
570	0.91498				
571	0.9134				
572	0.91185				
573	0.90991				
574	0.9085899999999999				
575	0.90643				
576	0.9059				
577	0.90459				
578	0.90408				
579	0.90431				
580	0.9037900000000001				
581	0.90417				
582	0.90408				
583	0.90452				
584	0.9043399999999999				
585	0.9044				
586	0.90411				
587	0.90313				
588	0.9024500000000001				
589	0.9005				
590	0.8980400000000001				
591	0.89469				
592	0.8903				
593	0.88511				
594	0.8791800000000001				
595	0.87224				
596	0.86408				
597	0.8558				
598	0.84552				
599	0.83525				
600	0.8237000000000001				
601	0.8120499999999999				
602	0.7992400000000001				
603	0.7870999999999999				
604	0.77319				
605	0.75924				
606	0.74483				
607	0.7289100000000001				
608	0.71206				
609	0.69478				
610	0.67628				
611	0.65642				
612	0.63505				
613	0.6128				
614	0.5888100000000001				
615	0.56438				
616	0.5371				
617	0.50968				
618	0.48118				
619	0.45270000000000005				
620	0.42325				
621	0.39397				
622	0.36556				
623	0.33852				
624	0.31156				
625	0.28683				
626	0.26316				
627	0.24138				
628	0.22085999999999997				
629	0.20219				
630	0.18533000000000002				
631	0.16991				
632	0.15551				
633	0.1429				
634	0.13149				
635	0.12125999999999999				
636	0.11193				
637	0.10368000000000001				
638	0.09629				
639	0.08958				
640	0.08352				
641	0.07808				
642	0.07324				
643	0.0689				
644	0.06483				
645	0.061239999999999996				
646	0.05815000000000001				
647	0.055220000000000005				
648	0.052629999999999996				
649	0.05029				
650	0.048150000000000005				
651	0.04626				
652	0.0446				
653	0.042969999999999994				
654	0.0416				
655	0.04034				
656	0.039220000000000005				
657	0.0383				
658	0.037360000000000004				
659	0.03676				
660	0.036019999999999996				
661	0.0355				
662	0.03506				
663	0.03471				
664	0.03451				
665	0.03429				
666	0.03426				
667	0.03421				
668	0.03427				
669	0.03445				
670	0.03468				
671	0.035070000000000004				
672	0.03547				
673	0.03605				
674	0.03665				
675	0.03739				
676	0.03818				
677	0.03919				
678	0.04027				
679	0.04156				
680	0.04288				
681	0.04439				
682	0.04617				
683	0.048150000000000005				
684	0.050199999999999995				
685	0.05257				
686	0.05525				
687	0.058230000000000004				
688	0.06146				
689	0.06503				
690	0.06919				
691	0.07365000000000001				
692	0.07864				
693	0.08429				
694	0.09072				
695	0.09776				
696	0.10573				
697	0.11481999999999999				
698	0.12521000000000002				
699	0.13675				
700	0.14923999999999998				
701	0.16381				
702	0.18032				
703	0.19855				
704	0.21942				
705	0.24256				
706	0.2685				
707	0.29727				
708	0.32814				
709	0.36229999999999996				
710	0.39818				
711	0.43506				
712	0.47359				
713	0.5122				
714	0.54966				
715	0.58469				
716	0.6167199999999999				
717	0.64486				
718	0.66845				
719	0.6862600000000001				
720	0.6997199999999999				
721	0.70824				
722	0.7138599999999999				
723	0.7166899999999999				
724	0.71867				
725	0.7204600000000001				
726	0.72198				
727	0.72258				
728	0.72088				
729	0.71518				
730	0.70506				
731	0.68938				
732	0.6696500000000001				
733	0.64591				
734	0.62113				
735	0.59626				
736	0.57284				
737	0.5514800000000001				
738	0.53381				
739	0.5177700000000001				
740	0.50436				
741	0.49377000000000004				
742	0.48556				
743	0.47979999999999995				
744	0.47513				
745	0.47231				
746	0.47096				
747	0.47119999999999995				
748	0.47243				
749	0.47540999999999994				
750	0.47889000000000004				
751	0.48365				
752	0.48977				
753	0.49713				
754	0.50463				
755	0.51326				
756	0.5238900000000001				
757	0.53411				
758	0.54578				
759	0.55811				
760	0.57134				
761	0.58488				
762	0.59921				
763	0.61402				
764	0.63015				
765	0.6458400000000001				
766	0.6627500000000001				
767	0.67999				
768	0.69664				
769	0.7139				
770	0.73087				
771	0.7484999999999999				
772	0.76575				
773	0.7827200000000001				
774	0.80012				
775	0.81552				
776	0.8314				
777	0.8467600000000001				
778	0.8615900000000001				
779	0.87551				
780	0.8891500000000001				
781	0.89902				
782	0.91063				
783	0.9181900000000001				
784	0.9266599999999999				
785	0.9321699999999999				
786	0.93609				
787	0.93852				
788	0.93888				
789	0.9392900000000001				
790	0.9371299999999999				
791	0.93367				
792	0.92991				
793	0.92501				
794	0.92039				
795	0.9146599999999999				
796	0.9088299999999999				
797	0.9035899999999999				
798	0.8971399999999999				
799	0.8917				
800	0.88713				
801	0.88247				
802	0.8779300000000001				
803	0.87531				
804	0.87168				
805	0.86945				
806	0.86675				
807	0.86605				
808	0.8644799999999999				
809	0.86443				
810	0.8651399999999999				
811	0.86466				
812	0.86661				
813	0.8683799999999999				
814	0.8703799999999999				
815	0.87323				
816	0.8757299999999999				
817	0.87983				
818	0.88264				
819	0.88737				
820	0.89058				
821	0.8951				
822	0.8989				
823	0.9043899999999999				
824	0.9084399999999999				
825	0.91318				
826	0.9163899999999999				
827	0.92216				
828	0.92604				
829	0.9294199999999999				
830	0.93354				
831	0.93646				
832	0.93994				
833	0.94222				
834	0.9448799999999999				
835	0.94638				
836	0.9470999999999999				
837	0.9481999999999999				
838	0.9478700000000001				
839	0.9459000000000001				
840	0.94426				
841	0.9442				
842	0.94081				
843	0.93714				
844	0.93159				
845	0.92972				
846	0.92522				
847	0.92086				
848	0.91458				
849	0.9095099999999999				
850	0.90384				
851	0.89696				
852	0.89069				
853	0.88544				
854	0.88032				
855	0.87221				
856	0.8687999999999999				
857	0.86078				
858	0.8570699999999999				
859	0.85048				
860	0.8464				
861	0.83935				
862	0.83634				
863	0.8320000000000001				
864	0.8261				
865	0.82229				
866	0.82063				
867	0.81826				
868	0.81322				
869	0.8116500000000001				
870	0.8099500000000001				
871	0.80723				
872	0.8011				
873	0.79963				
874	0.80094				
875	0.7963800000000001				
876	0.80041				
877	0.79378				
878	0.79337				
879	0.7996				
880	0.79648				
881	0.79952				
882	0.79443				
883	0.79281				
884	0.7298600000000001				
885	0.73119				
886	0.73339				
887	0.7359300000000001				
888	0.73848				
889	0.74198				
890	0.7458				
891	0.74977				
892	0.75434				
893	0.75886				
894	0.76393				
895	0.76949				
896	0.7754800000000001				
897	0.7811499999999999				
898	0.78793				
899	0.7944199999999999				
900	0.80096				
901	0.80865				
902	0.81593				
903	0.82342				
904	0.8306699999999999				
905	0.83867				
906	0.84602				
907	0.85397				
908	0.86259				
909	0.86988				
910	0.8775				
911	0.88519				
912	0.8933599999999999				
913	0.90117				
914	0.90862				
915	0.9155500000000001				
916	0.9230700000000001				
917	0.9298099999999999				
918	0.93622				
919	0.94202				
920	0.9481				
921	0.95364				
922	0.9588599999999999				
923	0.96354				
924	0.9677899999999999				
925	0.97167				
926	0.9752500000000001				
927	0.97807				
928	0.9806999999999999				
929	0.98307				
930	0.98452				
931	0.9854999999999999				
932	0.9865600000000001				
933	0.98738				
934	0.98746				
935	0.9876900000000001				
936	0.9872299999999999				
937	0.9865900000000001				
938	0.9859300000000001				
939	0.98461				
940	0.98324				
941	0.9815999999999999				
942	0.97966				
943	0.97764				
944	0.9753700000000001				
945	0.9733700000000001				
946	0.971				
947	0.96892				
948	0.96638				
949	0.96398				
950	0.9612				
951	0.95895				
952	0.95667				
953	0.95406				
954	0.95175				
955	0.94934				
956	0.94723				
957	0.94513				
958	0.9432699999999999				
959	0.94139				
960	0.93905				
961	0.93766				
962	0.9361				
963	0.9346				
964	0.93316				
965	0.93194				
966	0.93108				
967	0.92998				
968	0.92925				
969	0.92887				
970	0.92781				
971	0.9277299999999999				
972	0.92712				
973	0.92694				
974	0.92696				
975	0.92702				
976	0.9271699999999999				
977	0.9274800000000001				
978	0.92781				
979	0.9283499999999999				
980	0.92848				
981	0.929				
982	0.92976				
983	0.93035				
984	0.93107				
985	0.9317799999999999				
986	0.93254				
987	0.9333899999999999				
988	0.93415				
989	0.935				
990	0.93616				
991	0.93732				
992	0.93766				
993	0.93876				
994	0.9398099999999999				
995	0.94027				
996	0.9414199999999999				
997	0.9423600000000001				
998	0.94368				
999	0.9443				
1000	0.9455100000000001				
1001	0.94598				
1002	0.9470099999999999				
1003	0.94782				
1004	0.94852				
1005	0.94926				
1006	0.9500700000000001				
1007	0.95053				
1008	0.9514900000000001				
1009	0.95205				
1010	0.9526				
1011	0.95304				
1012	0.95392				
1013	0.95364				
1014	0.9544799999999999				
1015	0.95482				
1016	0.9554				
1017	0.9554699999999999				
1018	0.95532				
1019	0.9558199999999999				
1020	0.95612				
1021	0.95611				
1022	0.95619				
1023	0.95587				
1024	0.95647				
1025	0.95568				
1026	0.95604				
1027	0.9555899999999999				
1028	0.95552				
1029	0.9553				
1030	0.9550799999999999				
1031	0.95478				
1032	0.95455				
1033	0.95402				
1034	0.9537300000000001				
1035	0.95293				
1036	0.9527899999999999				
1037	0.95246				
1038	0.95184				
1039	0.9514499999999999				
1040	0.9510299999999999				
1041	0.94991				
1042	0.95004				
1043	0.9489799999999999				
1044	0.9484600000000001				
1045	0.94809				
1046	0.94708				
1047	0.94647				
1048	0.94593				
1049	0.94512				
1050	0.9444499999999999				
1051	0.94364				
1052	0.94304				
1053	0.94226				
1054	0.9415				
1055	0.94054				
1056	0.9397				
1057	0.93888				
1058	0.93797				
1059	0.93718				
1060	0.93607				
1061	0.93517				
1062	0.9342100000000001				
1063	0.9331900000000001				
1064	0.9322				
1065	0.93123				
1066	0.93029				
1067	0.9289000000000001				
1068	0.9278				
1069	0.92676				
1070	0.92529				
1071	0.92399				
1072	0.9226800000000001				
1073	0.92123				
1074	0.9200499999999999				
1075	0.91845				
1076	0.91694				
1077	0.91509				
1078	0.9134399999999999				
1079	0.91169				
1080	0.9093800000000001				
1081	0.90771				
1082	0.9052899999999999				
1083	0.90323				
1084	0.9007999999999999				
1085	0.89837				
1086	0.89561				
1087	0.89298				
1088	0.89008				
1089	0.8868699999999999				
1090	0.88408				
1091	0.8805700000000001				
1092	0.8769199999999999				
1093	0.87283				
1094	0.86917				
1095	0.86493				
1096	0.8606699999999999				
1097	0.8561799999999999				
1098	0.8511799999999999				
1099	0.84662				
1100	0.84147				
