Wavelength	Transmittance	hex_color	Manufacturer	Name	Filter Number
300	0.0	#838383	Chroma	Unnamed	ZT355/405/473rpc
301	0.00066				
302	0.01782				
303	0.036629999999999996				
304	0.03831				
305	0.05853				
306	0.05179				
307	0.06075				
308	0.06907				
309	0.08255000000000001				
310	0.08742000000000001				
311	0.09534000000000001				
312	0.10909				
313	0.12408				
314	0.13787000000000002				
315	0.15				
316	0.16433				
317	0.18413000000000002				
318	0.20809999999999998				
319	0.22938				
320	0.25234				
321	0.28586				
322	0.32316				
323	0.36068				
324	0.39649999999999996				
325	0.43476				
326	0.47763				
327	0.5241				
328	0.57744				
329	0.62128				
330	0.6566299999999999				
331	0.68868				
332	0.7368899999999999				
333	0.78827				
334	0.8260299999999999				
335	0.84285				
336	0.83816				
337	0.84366				
338	0.88324				
339	0.9094				
340	0.91326				
341	0.9155599999999999				
342	0.90798				
343	0.8898199999999999				
344	0.8504600000000001				
345	0.80227				
346	0.69036				
347	0.51949				
348	0.32334				
349	0.14586				
350	0.03911				
351	0.01002				
352	0.00356				
353	0.00192				
354	0.00136				
355	0.00114				
356	0.0014199999999999998				
357	0.00199				
358	0.004079999999999999				
359	0.011619999999999998				
360	0.03272				
361	0.0705				
362	0.10923999999999999				
363	0.1605				
364	0.25073				
365	0.38693				
366	0.52484				
367	0.67746				
368	0.8198799999999999				
369	0.90019				
370	0.91657				
371	0.9181699999999999				
372	0.9132899999999999				
373	0.91067				
374	0.91318				
375	0.90641				
376	0.88801				
377	0.8745				
378	0.8713299999999999				
379	0.87896				
380	0.8829				
381	0.8771899999999999				
382	0.87093				
383	0.87197				
384	0.88232				
385	0.89952				
386	0.90464				
387	0.9045399999999999				
388	0.8950400000000001				
389	0.8861100000000001				
390	0.8764799999999999				
391	0.87593				
392	0.8787999999999999				
393	0.85291				
394	0.74705				
395	0.54609				
396	0.32162999999999997				
397	0.17609000000000002				
398	0.09522				
399	0.05598				
400	0.03878				
401	0.030670000000000003				
402	0.02709				
403	0.02621				
404	0.02713				
405	0.02946				
406	0.0326				
407	0.03637				
408	0.04231				
409	0.05289				
410	0.07653				
411	0.11953				
412	0.19638000000000003				
413	0.30449000000000004				
414	0.42107				
415	0.5164300000000001				
416	0.62985				
417	0.74134				
418	0.82525				
419	0.87459				
420	0.9000900000000001				
421	0.9045399999999999				
422	0.88602				
423	0.86761				
424	0.87332				
425	0.89582				
426	0.91569				
427	0.9133100000000001				
428	0.8934399999999999				
429	0.87857				
430	0.89397				
431	0.92256				
432	0.9525199999999999				
433	0.9584900000000001				
434	0.9495699999999999				
435	0.94624				
436	0.94812				
437	0.95993				
438	0.9625400000000001				
439	0.9481100000000001				
440	0.92633				
441	0.91637				
442	0.9270099999999999				
443	0.94759				
444	0.9569199999999999				
445	0.9367300000000001				
446	0.89499				
447	0.8626				
448	0.85407				
449	0.87637				
450	0.9189799999999999				
451	0.9453499999999999				
452	0.93806				
453	0.90593				
454	0.87818				
455	0.8733299999999999				
456	0.9012399999999999				
457	0.9381900000000001				
458	0.95499				
459	0.94139				
460	0.92098				
461	0.90375				
462	0.85195				
463	0.7028700000000001				
464	0.50039				
465	0.3093				
466	0.1869				
467	0.11882				
468	0.08023999999999999				
469	0.060439999999999994				
470	0.04867				
471	0.04289				
472	0.040709999999999996				
473	0.041890000000000004				
474	0.046				
475	0.055439999999999996				
476	0.07147				
477	0.1016				
478	0.15172				
479	0.23919				
480	0.35783000000000004				
481	0.48521000000000003				
482	0.62043				
483	0.74309				
484	0.83773				
485	0.86725				
486	0.85898				
487	0.86199				
488	0.88834				
489	0.9259999999999999				
490	0.94877				
491	0.9507599999999999				
492	0.93513				
493	0.9170900000000001				
494	0.90835				
495	0.91171				
496	0.92392				
497	0.93628				
498	0.9411799999999999				
499	0.93486				
500	0.9250799999999999				
501	0.9172899999999999				
502	0.91628				
503	0.9231199999999999				
504	0.9387099999999999				
505	0.95387				
506	0.96197				
507	0.96039				
508	0.9502299999999999				
509	0.93967				
510	0.93342				
511	0.93408				
512	0.9432299999999999				
513	0.955				
514	0.96358				
515	0.96161				
516	0.94462				
517	0.91849				
518	0.8858799999999999				
519	0.85592				
520	0.83509				
521	0.82545				
522	0.82872				
523	0.84453				
524	0.86872				
525	0.89872				
526	0.92594				
527	0.9464199999999999				
528	0.95634				
529	0.9577800000000001				
530	0.95262				
531	0.94565				
532	0.9392499999999999				
533	0.93648				
534	0.93765				
535	0.941				
536	0.9469				
537	0.9533				
538	0.95736				
539	0.95729				
540	0.95394				
541	0.94741				
542	0.93861				
543	0.92919				
544	0.9207599999999999				
545	0.9138299999999999				
546	0.91089				
547	0.9117000000000001				
548	0.91786				
549	0.92694				
550	0.93742				
551	0.94848				
552	0.9575499999999999				
553	0.9628700000000001				
554	0.96148				
555	0.95407				
556	0.94246				
557	0.92644				
558	0.9117400000000001				
559	0.8988200000000001				
560	0.8918699999999999				
561	0.88857				
562	0.89243				
563	0.9011499999999999				
564	0.91333				
565	0.92706				
566	0.9421200000000001				
567	0.95652				
568	0.9675				
569	0.97233				
570	0.97331				
571	0.9730200000000001				
572	0.97158				
573	0.96943				
574	0.9698699999999999				
575	0.9718399999999999				
576	0.9745900000000001				
577	0.97688				
578	0.97839				
579	0.97836				
580	0.97682				
581	0.9734099999999999				
582	0.96804				
583	0.9595				
584	0.95135				
585	0.9416100000000001				
586	0.93294				
587	0.92791				
588	0.92374				
589	0.9218600000000001				
590	0.9216500000000001				
591	0.9228700000000001				
592	0.92551				
593	0.92891				
594	0.93277				
595	0.93498				
596	0.93843				
597	0.9459000000000001				
598	0.94831				
599	0.95371				
600	0.96055				
601	0.96842				
602	0.9758499999999999				
603	0.98297				
604	0.98539				
605	0.9847899999999999				
606	0.98639				
607	0.9836400000000001				
608	0.97635				
609	0.96795				
610	0.95997				
611	0.95348				
612	0.9499				
613	0.9477				
614	0.94794				
615	0.9495				
616	0.9517700000000001				
617	0.95378				
618	0.95324				
619	0.9516899999999999				
620	0.94583				
621	0.93908				
622	0.9311499999999999				
623	0.91928				
624	0.9084399999999999				
625	0.8989				
626	0.8916200000000001				
627	0.88783				
628	0.88595				
629	0.8867499999999999				
630	0.8920600000000001				
631	0.89935				
632	0.90689				
633	0.91648				
634	0.92549				
635	0.93427				
636	0.94116				
637	0.9460500000000001				
638	0.95053				
639	0.95131				
640	0.95208				
641	0.95113				
642	0.9491299999999999				
643	0.94573				
644	0.94062				
645	0.93574				
646	0.929				
647	0.92729				
648	0.92485				
649	0.92208				
650	0.9206699999999999				
651	0.9193600000000001				
652	0.91912				
653	0.91839				
654	0.9185800000000001				
655	0.9207500000000001				
656	0.9238				
657	0.92782				
658	0.93226				
659	0.9405				
660	0.94918				
661	0.95587				
662	0.96473				
663	0.97107				
664	0.9766400000000001				
665	0.9806199999999999				
666	0.9841500000000001				
667	0.98273				
668	0.97977				
669	0.97478				
670	0.97088				
671	0.96453				
672	0.9609300000000001				
673	0.95706				
674	0.9564400000000001				
675	0.95592				
676	0.9575499999999999				
677	0.96198				
678	0.9656100000000001				
679	0.96769				
680	0.97065				
681	0.9734099999999999				
682	0.97407				
683	0.9747				
684	0.9730200000000001				
685	0.9698				
686	0.96393				
687	0.9601000000000001				
688	0.95304				
689	0.94801				
690	0.94494				
691	0.94296				
692	0.9419				
693	0.94241				
694	0.94621				
695	0.9506100000000001				
696	0.9559099999999999				
697	0.96131				
698	0.96724				
699	0.9736199999999999				
700	0.97851				
701	0.98141				
702	0.98221				
703	0.9814400000000001				
704	0.9795				
705	0.9754600000000001				
706	0.97038				
707	0.96573				
708	0.96032				
709	0.95676				
710	0.9540500000000001				
711	0.95355				
712	0.95503				
713	0.958				
714	0.96336				
715	0.9682599999999999				
716	0.97375				
717	0.9791599999999999				
718	0.98354				
719	0.9867				
720	0.98764				
721	0.98623				
722	0.9821599999999999				
723	0.9755800000000001				
724	0.97018				
725	0.96408				
726	0.95798				
727	0.9535899999999999				
728	0.95006				
729	0.94831				
730	0.94851				
731	0.95037				
732	0.95281				
733	0.9559799999999999				
734	0.9607399999999999				
735	0.96351				
736	0.96545				
737	0.9662999999999999				
738	0.96843				
739	0.96488				
740	0.9616800000000001				
741	0.9571200000000001				
742	0.9505899999999999				
743	0.94593				
744	0.9416100000000001				
745	0.9364100000000001				
746	0.93169				
747	0.92829				
748	0.9258299999999999				
749	0.92549				
750	0.92762				
751	0.93271				
752	0.94024				
753	0.94695				
754	0.95553				
755	0.96403				
756	0.97119				
757	0.97602				
758	0.97902				
759	0.9778				
760	0.97272				
761	0.96316				
762	0.9512999999999999				
763	0.93651				
764	0.91963				
765	0.90302				
766	0.8880800000000001				
767	0.8750100000000001				
768	0.86587				
769	0.85964				
770	0.85589				
771	0.8563				
772	0.8608499999999999				
773	0.86828				
774	0.87968				
775	0.89485				
776	0.9120699999999999				
777	0.9300499999999999				
778	0.94632				
779	0.96089				
780	0.97072				
781	0.9770699999999999				
782	0.97964				
783	0.97784				
784	0.97038				
785	0.9611				
786	0.95112				
787	0.94048				
788	0.92971				
789	0.92066				
790	0.91563				
791	0.91133				
792	0.91014				
793	0.91042				
794	0.91006				
795	0.9079999999999999				
796	0.89899				
797	0.88432				
798	0.8596299999999999				
799	0.8320000000000001				
800	0.7977				
801	0.7617700000000001				
802	0.7256999999999999				
803	0.6930299999999999				
804	0.65877				
805	0.62488				
806	0.58815				
807	0.5497299999999999				
808	0.51015				
809	0.46874000000000005				
810	0.42752				
811	0.38786000000000004				
812	0.35072000000000003				
813	0.31705				
814	0.28687				
815	0.26077				
816	0.23818				
817	0.21879				
818	0.2029				
819	0.18947				
820	0.17729				
821	0.16797				
822	0.16032				
823	0.15341				
824	0.14762				
825	0.14217000000000002				
826	0.13676				
827	0.13213				
828	0.12779				
829	0.12362999999999999				
830	0.12023				
831	0.11738				
832	0.11465				
833	0.1127				
834	0.11101000000000001				
835	0.10946				
836	0.10803000000000001				
837	0.10669000000000001				
838	0.10558999999999999				
839	0.10406				
840	0.10225				
841	0.10015				
842	0.09775				
843	0.09504				
844	0.09207000000000001				
845	0.08878				
846	0.08522				
847	0.08205				
848	0.07875				
849	0.07578				
850	0.07248				
